# Exposure Time: 30.000000
# Center Wavelength: 800.000000
# Grating: 149.849991 l, 800.000000 nm
# Input Slit Width: 500.000000
628.656067	2412.000000
630.008057	2392.000000
631.359900	2452.000000
632.711800	2559.000000
634.063660	2507.000000
635.415466	2746.000000
636.767200	3422.000000
638.119000	2913.000000
639.470700	2855.000000
640.822300	2892.000000
642.173950	2655.000000
643.525500	2418.000000
644.877000	2337.000000
646.228600	2227.000000
647.579956	2187.000000
648.931400	2006.000000
650.282837	2278.000000
651.634155	6391.000000
652.985500	1630.000000
654.336731	1322.000000
655.688000	1159.000000
657.039100	1091.000000
658.390259	1072.000000
659.741333	1147.000000
661.092400	1248.000000
662.443500	1366.000000
663.794434	1588.000000
665.145400	1986.000000
666.496200	2283.000000
667.847100	2610.000000
669.197900	2988.000000
670.548645	3238.000000
671.899400	3296.000000
673.250061	3486.000000
674.600769	3744.000000
675.951355	3755.000000
677.301900	4023.000000
678.652400	4138.000000
680.002869	4321.000000
681.353300	4421.000000
682.703700	4555.000000
684.054000	4546.000000
685.404300	4735.000000
686.754600	4901.000000
688.104800	5023.000000
689.454956	5278.000000
690.805054	5505.000000
692.155100	5632.000000
693.505100	5689.000000
694.855100	5701.000000
696.205100	5606.000000
697.554932	5492.000000
698.904800	5632.000000
700.254600	6518.000000
701.604400	6831.000000
702.954041	6874.000000
704.303700	6997.000000
705.653300	7013.000000
707.002900	5980.000000
708.352400	5950.000000
709.701900	5925.000000
711.051331	5887.000000
712.400700	5839.000000
713.750000	5927.000000
715.099300	5983.000000
716.448547	5949.000000
717.797668	5891.000000
719.146851	5831.000000
720.495900	5602.000000
721.845000	6032.000000
723.194000	5885.000000
724.542900	5577.000000
725.891800	5413.000000
727.240700	4904.000000
728.589500	3995.000000
729.938100	3715.000000
731.286900	3270.000000
732.635500	2886.000000
733.984131	2470.000000
735.332642	2102.000000
736.681152	1724.000000
738.029600	1455.000000
739.377900	1334.000000
740.726300	1426.000000
742.074600	1562.000000
743.422800	1783.000000
744.771057	2078.000000
746.119141	2528.000000
747.467163	2830.000000
748.815300	3236.000000
750.163200	3635.000000
751.511100	4113.000000
752.859100	4475.000000
754.206900	4907.000000
755.554600	5271.000000
756.902344	5579.000000
758.249939	5767.000000
759.597600	6074.000000
760.945200	6303.000000
762.292664	6502.000000
763.640100	6763.000000
764.987500	6854.000000
766.334800	6990.000000
767.682068	7081.000000
769.029300	7253.000000
770.376465	7259.000000
771.723600	7352.000000
773.070700	7373.000000
774.417664	7379.000000
775.764600	7516.000000
777.111500	7629.000000
778.458300	7677.000000
779.805054	7569.000000
781.151855	7654.000000
782.498535	7572.000000
783.845100	7647.000000
785.191650	7597.000000
786.538200	7596.000000
787.884600	7482.000000
789.231000	7359.000000
790.577300	7409.000000
791.923500	7504.000000
793.269836	7369.000000
794.615967	7268.000000
795.962036	7202.000000
797.308044	7129.000000
798.654000	7107.000000
799.999939	7146.000000
801.345800	7046.000000
802.691600	7045.000000
804.037354	7005.000000
805.383057	6908.000000
806.728638	6823.000000
808.074158	6851.000000
809.419739	6728.000000
810.765137	6552.000000
812.110535	6419.000000
813.455800	6335.000000
814.801100	6155.000000
816.146240	6018.000000
817.491455	5883.000000
818.836500	5645.000000
820.181458	5541.000000
821.526500	5478.000000
822.871338	5154.000000
824.216100	4924.000000
825.561000	4782.000000
826.905640	4530.000000
828.250244	4237.000000
829.594849	3981.000000
830.939400	3698.000000
832.283800	3344.000000
833.628200	3008.000000
834.972534	2838.000000
836.316700	2570.000000
837.661000	2201.000000
839.005100	1963.000000
840.349100	1685.000000
841.693200	1341.000000
843.037100	1185.000000
844.381000	1092.000000
845.724854	1047.000000
847.068542	1172.000000
848.412200	1263.000000
849.755859	1421.000000
851.099365	1605.000000
852.442900	1865.000000
853.786300	2006.000000
855.129639	2277.000000
856.472900	2489.000000
857.816162	2766.000000
859.159300	3056.000000
860.502300	3332.000000
861.845400	3507.000000
863.188354	3793.000000
864.531250	3930.000000
865.874100	4043.000000
867.216800	4185.000000
868.559448	4337.000000
869.902100	4501.000000
871.244600	4548.000000
872.587100	4659.000000
873.929565	4735.000000
875.271851	4923.000000
876.614136	4924.000000
877.956360	5094.000000
879.298500	5070.000000
880.640500	5152.000000
881.982544	5070.000000
883.324463	5159.000000
884.666300	5159.000000
886.008100	5205.000000
887.349800	5224.000000
888.691467	5204.000000
890.033100	5194.000000
891.374600	5162.000000
892.715942	5195.000000
894.057400	5153.000000
895.398600	5161.000000
896.739800	5178.000000
898.081055	5106.000000
899.422058	5117.000000
900.763062	5220.000000
902.104000	5058.000000
903.444900	5066.000000
904.785645	5015.000000
906.126343	4948.000000
907.467000	4833.000000
908.807556	4791.000000
910.148100	4740.000000
911.488464	4702.000000
912.828800	4712.000000
914.169100	4631.000000
915.509338	4575.000000
916.849400	4567.000000
918.189453	4432.000000
919.529400	4527.000000
920.869400	4433.000000
922.209167	4354.000000
923.548950	4265.000000
924.888600	4316.000000
926.228200	4127.000000
927.567700	4093.000000
928.907166	3965.000000
930.246600	3947.000000
931.585900	3811.000000
932.925049	3776.000000
934.264200	3550.000000
935.603333	3628.000000
936.942261	3473.000000
938.281250	3516.000000
939.620056	3438.000000
940.958800	3347.000000
942.297546	3269.000000
943.636100	3160.000000
944.974700	3166.000000
946.313200	3023.000000
947.651500	2987.000000
948.989746	2852.000000
950.328000	2885.000000
951.666100	2714.000000
953.004150	2535.000000
954.342200	2386.000000
955.680054	2446.000000
957.017900	2316.000000
958.355652	2201.000000
959.693300	2177.000000
961.030800	2003.000000
962.368400	1896.000000
963.705750	1819.000000
965.043152	1754.000000
966.380432	1654.000000
967.717600	1594.000000
969.054700	1443.000000
970.391700	1348.000000
971.728638	1264.000000
