# Exposure Time: 30.000000
# Center Wavelength: 800.000000
# Grating: 149.849991 l, 800.000000 nm
# Input Slit Width: 500.000000
628.656067	938.000000
630.008057	967.000000
631.359900	966.000000
632.711800	981.000000
634.063660	959.000000
635.415466	1156.000000
636.767200	1214.000000
638.119000	1302.000000
639.470700	1334.000000
640.822300	1331.000000
642.173950	1181.000000
643.525500	1044.000000
644.877000	987.000000
646.228600	1021.000000
647.579956	1116.000000
648.931400	1173.000000
650.282837	1275.000000
651.634155	1268.000000
652.985500	1238.000000
654.336731	1111.000000
655.688000	1092.000000
657.039100	1117.000000
658.390259	1140.000000
659.741333	1064.000000
661.092400	1061.000000
662.443500	1032.000000
663.794434	907.000000
665.145400	1042.000000
666.496200	1004.000000
667.847100	1003.000000
669.197900	1020.000000
670.548645	970.000000
671.899400	762.000000
673.250061	771.000000
674.600769	721.000000
675.951355	645.000000
677.301900	638.000000
678.652400	716.000000
680.002869	780.000000
681.353300	872.000000
682.703700	944.000000
684.054000	1019.000000
685.404300	1079.000000
686.754600	1147.000000
688.104800	1223.000000
689.454956	1444.000000
690.805054	1637.000000
692.155100	1670.000000
693.505100	1728.000000
694.855100	1741.000000
696.205100	1647.000000
697.554932	1559.000000
698.904800	1637.000000
700.254600	2478.000000
701.604400	2825.000000
702.954041	2836.000000
704.303700	2874.000000
705.653300	2825.000000
707.002900	2028.000000
708.352400	1833.000000
709.701900	1828.000000
711.051331	1866.000000
712.400700	1857.000000
713.750000	1924.000000
715.099300	2011.000000
716.448547	2013.000000
717.797668	2085.000000
719.146851	2036.000000
720.495900	2133.000000
721.845000	2668.000000
723.194000	2693.000000
724.542900	2728.000000
725.891800	2675.000000
727.240700	2593.000000
728.589500	2050.000000
729.938100	2090.000000
731.286900	2060.000000
732.635500	2050.000000
733.984131	2056.000000
735.332642	2003.000000
736.681152	1985.000000
738.029600	1933.000000
739.377900	1886.000000
740.726300	1991.000000
742.074600	2004.000000
743.422800	1889.000000
744.771057	1828.000000
746.119141	1794.000000
747.467163	1493.000000
748.815300	1364.000000
750.163200	1296.000000
751.511100	1205.000000
752.859100	1068.000000
754.206900	945.000000
755.554600	830.000000
756.902344	786.000000
758.249939	727.000000
759.597600	757.000000
760.945200	815.000000
762.292664	878.000000
763.640100	983.000000
764.987500	1080.000000
766.334800	1218.000000
767.682068	1271.000000
769.029300	1467.000000
770.376465	1571.000000
771.723600	1631.000000
773.070700	1775.000000
774.417664	1855.000000
775.764600	1931.000000
777.111500	2027.000000
778.458300	2073.000000
779.805054	2104.000000
781.151855	2187.000000
782.498535	2209.000000
783.845100	2219.000000
785.191650	2281.000000
786.538200	2332.000000
787.884600	2339.000000
789.231000	2350.000000
790.577300	2415.000000
791.923500	2418.000000
793.269836	2367.000000
794.615967	2458.000000
795.962036	2409.000000
797.308044	2386.000000
798.654000	2404.000000
799.999939	2406.000000
801.345800	2384.000000
802.691600	2437.000000
804.037354	2404.000000
805.383057	2461.000000
806.728638	2464.000000
808.074158	2431.000000
809.419739	2435.000000
810.765137	2441.000000
812.110535	2402.000000
813.455800	2412.000000
814.801100	2344.000000
816.146240	2358.000000
817.491455	2293.000000
818.836500	2281.000000
820.181458	2284.000000
821.526500	2263.000000
822.871338	2296.000000
824.216100	2317.000000
825.561000	2296.000000
826.905640	2279.000000
828.250244	2342.000000
829.594849	2282.000000
830.939400	2225.000000
832.283800	2199.000000
833.628200	2146.000000
834.972534	2287.000000
836.316700	2282.000000
837.661000	2196.000000
839.005100	2245.000000
840.349100	2133.000000
841.693200	1954.000000
843.037100	1925.000000
844.381000	1878.000000
845.724854	1826.000000
847.068542	1778.000000
848.412200	1735.000000
849.755859	1650.000000
851.099365	1598.000000
852.442900	1431.000000
853.786300	1280.000000
855.129639	1178.000000
856.472900	1141.000000
857.816162	1031.000000
859.159300	992.000000
860.502300	906.000000
861.845400	908.000000
863.188354	807.000000
864.531250	808.000000
865.874100	796.000000
867.216800	809.000000
868.559448	810.000000
869.902100	816.000000
871.244600	822.000000
872.587100	912.000000
873.929565	2084.000000
875.271851	1123.000000
876.614136	1191.000000
877.956360	1246.000000
879.298500	1357.000000
880.640500	1384.000000
881.982544	1396.000000
883.324463	1503.000000
884.666300	1600.000000
886.008100	1629.000000
887.349800	1654.000000
888.691467	1671.000000
890.033100	1728.000000
891.374600	1742.000000
892.715942	1818.000000
894.057400	1797.000000
895.398600	1801.000000
896.739800	1847.000000
898.081055	1904.000000
899.422058	1906.000000
900.763062	1858.000000
902.104000	1897.000000
903.444900	1914.000000
904.785645	1894.000000
906.126343	1902.000000
907.467000	1910.000000
908.807556	1951.000000
910.148100	1907.000000
911.488464	1880.000000
912.828800	1922.000000
914.169100	1878.000000
915.509338	1885.000000
916.849400	1880.000000
918.189453	1885.000000
919.529400	1824.000000
920.869400	1889.000000
922.209167	1864.000000
923.548950	1826.000000
924.888600	1810.000000
926.228200	1802.000000
927.567700	1809.000000
928.907166	1738.000000
930.246600	1742.000000
931.585900	1666.000000
932.925049	1687.000000
934.264200	1614.000000
935.603333	1612.000000
936.942261	1621.000000
938.281250	1608.000000
939.620056	1600.000000
940.958800	1563.000000
942.297546	1545.000000
943.636100	1508.000000
944.974700	1552.000000
946.313200	1508.000000
947.651500	1527.000000
948.989746	1476.000000
950.328000	1435.000000
951.666100	1439.000000
953.004150	1384.000000
954.342200	1341.000000
955.680054	1380.000000
957.017900	1376.000000
958.355652	1352.000000
959.693300	1340.000000
961.030800	1294.000000
962.368400	1224.000000
963.705750	1258.000000
965.043152	1249.000000
966.380432	1205.000000
967.717600	1200.000000
969.054700	1175.000000
970.391700	1126.000000
971.728638	1106.000000
