# Exposure Time: 30.000000
# Center Wavelength: 900.000000
# Grating: 149.849991 l, 800.000000 nm
# Input Slit Width: 500.000000
728.956300	1355.000000
730.306000	1359.000000
731.655700	1406.000000
733.005400	1388.000000
734.354900	1413.000000
735.704500	1407.000000
737.054000	1425.000000
738.403564	1470.000000
739.753000	1452.000000
741.102400	1684.000000
742.451700	1763.000000
743.801100	1814.000000
745.150400	1778.000000
746.499700	1770.000000
747.848755	1585.000000
749.198000	1602.000000
750.547100	1590.000000
751.896200	1668.000000
753.245239	1584.000000
754.594238	1568.000000
755.943237	1582.000000
757.292100	1548.000000
758.641000	1531.000000
759.989746	1561.000000
761.338562	1521.000000
762.687300	1485.000000
764.036000	1524.000000
765.384644	1528.000000
766.733200	1515.000000
768.081848	1555.000000
769.430359	1542.000000
770.778800	1544.000000
772.127258	1524.000000
773.475647	1560.000000
774.824000	1527.000000
776.172300	1546.000000
777.520500	1535.000000
778.868700	1504.000000
780.216900	1516.000000
781.565063	1547.000000
782.913100	1493.000000
784.261169	1476.000000
785.609131	1533.000000
786.957000	1486.000000
788.304932	1557.000000
789.652800	1507.000000
791.000549	1509.000000
792.348267	1486.000000
793.696000	1483.000000
795.043600	1494.000000
796.391235	1481.000000
797.738800	1476.000000
799.086243	1439.000000
800.433700	1517.000000
801.781100	1474.000000
803.128500	1436.000000
804.475800	1466.000000
805.823059	1485.000000
807.170300	1446.000000
808.517456	1443.000000
809.864600	1492.000000
811.211700	1462.000000
812.558700	1439.000000
813.905600	1445.000000
815.252500	1412.000000
816.599400	1438.000000
817.946200	1430.000000
819.292969	1372.000000
820.639800	1381.000000
821.986450	1387.000000
823.333069	1403.000000
824.679565	1387.000000
826.026062	1392.000000
827.372500	1428.000000
828.718933	1410.000000
830.065300	1408.000000
831.411600	1375.000000
832.757900	1329.000000
834.104065	1414.000000
835.450200	1629.000000
836.796300	1560.000000
838.142300	1579.000000
839.488342	1579.000000
840.834200	1486.000000
842.180200	1352.000000
843.525940	1323.000000
844.871700	1348.000000
846.217400	1405.000000
847.563100	1418.000000
848.908752	1425.000000
850.254333	1391.000000
851.599800	1400.000000
852.945200	1311.000000
854.290600	1271.000000
855.636000	1260.000000
856.981262	1266.000000
858.326500	1237.000000
859.671700	1261.000000
861.016800	1297.000000
862.361900	1311.000000
863.706848	1309.000000
865.051758	1281.000000
866.396667	1286.000000
867.741455	1272.000000
869.086243	1269.000000
870.430969	1201.000000
871.775635	1155.000000
873.120239	1178.000000
874.464800	1199.000000
875.809265	1249.000000
877.153700	1250.000000
878.498100	1263.000000
879.842346	1228.000000
881.186600	1165.000000
882.530800	1152.000000
883.875000	1150.000000
885.219055	1145.000000
886.563049	1130.000000
887.907000	1116.000000
889.250854	1123.000000
890.594800	1082.000000
891.938500	1078.000000
893.282200	1067.000000
894.625900	1054.000000
895.969500	1052.000000
897.313000	1010.000000
898.656500	1035.000000
899.999939	1005.000000
901.343300	1004.000000
902.686646	974.000000
904.029800	985.000000
905.373000	989.000000
906.716100	919.000000
908.059143	953.000000
909.402100	947.000000
910.745056	931.000000
912.087900	939.000000
913.430664	919.000000
914.773438	904.000000
916.116000	902.000000
917.458740	878.000000
918.801200	836.000000
920.143700	852.000000
921.486145	866.000000
922.828500	839.000000
924.170800	846.000000
925.513000	820.000000
926.855164	802.000000
928.197266	804.000000
929.539300	784.000000
930.881200	779.000000
932.223100	787.000000
933.564941	769.000000
934.906738	752.000000
936.248400	720.000000
937.590100	736.000000
938.931641	697.000000
940.273132	699.000000
941.614600	718.000000
942.955933	687.000000
944.297241	669.000000
945.638500	681.000000
946.979600	664.000000
948.320740	667.000000
949.661865	647.000000
951.002747	651.000000
952.343700	632.000000
953.684600	634.000000
955.025269	617.000000
956.366000	625.000000
957.706600	603.000000
959.047200	601.000000
960.387634	593.000000
961.728100	593.000000
963.068400	586.000000
964.408700	566.000000
965.748962	556.000000
967.089050	573.000000
968.429138	577.000000
969.769100	578.000000
971.109100	545.000000
972.448900	568.000000
973.788700	540.000000
975.128400	580.000000
976.468100	543.000000
977.807700	549.000000
979.147200	542.000000
980.486633	548.000000
981.826000	557.000000
983.165300	542.000000
984.504456	550.000000
985.843600	540.000000
987.182739	550.000000
988.521700	524.000000
989.860657	561.000000
991.199463	543.000000
992.538300	541.000000
993.876953	539.000000
995.215700	536.000000
996.554200	545.000000
997.892639	556.000000
999.231100	534.000000
1000.569460	532.000000
1001.907780	532.000000
1003.246000	544.000000
1004.584110	523.000000
1005.922060	519.000000
1007.260070	531.000000
1008.597960	531.000000
1009.935790	518.000000
1011.273500	519.000000
1012.611210	527.000000
1013.948730	515.000000
1015.286320	527.000000
1016.623780	508.000000
1017.961060	521.000000
1019.298400	506.000000
1020.635620	525.000000
1021.972720	507.000000
1023.309810	497.000000
1024.646730	519.000000
1025.983760	527.000000
1027.320560	489.000000
1028.657230	489.000000
1029.993770	497.000000
1031.330570	517.000000
1032.667000	507.000000
1034.003540	507.000000
1035.339720	514.000000
1036.676150	492.000000
1038.012330	501.000000
1039.348270	492.000000
1040.684450	492.000000
1042.020510	480.000000
1043.356200	486.000000
1044.692000	480.000000
1046.027830	478.000000
1047.363530	517.000000
1048.699100	486.000000
1050.034420	482.000000
1051.370000	491.000000
1052.705200	483.000000
1054.040410	487.000000
1055.375610	480.000000
1056.710690	473.000000
1058.045650	483.000000
1059.380490	491.000000
1060.715450	498.000000
1062.050170	470.000000
1063.384770	490.000000
1064.719360	494.000000
1066.054000	476.000000
1067.388430	472.000000
1068.722660	490.000000
1070.056880	483.000000
1071.391110	472.000000
