# Exposure Time: 30.000000
# Center Wavelength: 900.000000
# Grating: 149.849991 l, 800.000000 nm
# Input Slit Width: 500.000000
728.956300	2816.000000
730.306000	2838.000000
731.655700	2854.000000
733.005400	2897.000000
734.354900	2865.000000
735.704500	2946.000000
737.054000	2893.000000
738.403564	2912.000000
739.753000	2986.000000
741.102400	3172.000000
742.451700	3227.000000
743.801100	3258.000000
745.150400	3307.000000
746.499700	3334.000000
747.848755	3084.000000
749.198000	3138.000000
750.547100	3179.000000
751.896200	3147.000000
753.245239	3049.000000
754.594238	3170.000000
755.943237	3106.000000
757.292100	3037.000000
758.641000	3068.000000
759.989746	2989.000000
761.338562	3018.000000
762.687300	3011.000000
764.036000	3006.000000
765.384644	3002.000000
766.733200	2976.000000
768.081848	2988.000000
769.430359	2994.000000
770.778800	2983.000000
772.127258	2956.000000
773.475647	2889.000000
774.824000	2980.000000
776.172300	2907.000000
777.520500	2964.000000
778.868700	2891.000000
780.216900	2871.000000
781.565063	2923.000000
782.913100	2807.000000
784.261169	2873.000000
785.609131	2829.000000
786.957000	2828.000000
788.304932	2804.000000
789.652800	2794.000000
791.000549	2832.000000
792.348267	2811.000000
793.696000	2667.000000
795.043600	2759.000000
796.391235	2725.000000
797.738800	2695.000000
799.086243	2664.000000
800.433700	2638.000000
801.781100	2673.000000
803.128500	2605.000000
804.475800	2640.000000
805.823059	2616.000000
807.170300	2680.000000
808.517456	2614.000000
809.864600	2564.000000
811.211700	2552.000000
812.558700	2572.000000
813.905600	2493.000000
815.252500	2521.000000
816.599400	2455.000000
817.946200	2467.000000
819.292969	2423.000000
820.639800	2360.000000
821.986450	2350.000000
823.333069	2378.000000
824.679565	2364.000000
826.026062	2354.000000
827.372500	2391.000000
828.718933	2356.000000
830.065300	2294.000000
831.411600	2324.000000
832.757900	2285.000000
834.104065	2330.000000
835.450200	2502.000000
836.796300	2437.000000
838.142300	2521.000000
839.488342	2474.000000
840.834200	2304.000000
842.180200	2214.000000
843.525940	2121.000000
844.871700	2108.000000
846.217400	2189.000000
847.563100	2180.000000
848.908752	2171.000000
850.254333	2135.000000
851.599800	2179.000000
852.945200	2016.000000
854.290600	1999.000000
855.636000	1954.000000
856.981262	1931.000000
858.326500	1939.000000
859.671700	1910.000000
861.016800	2003.000000
862.361900	1929.000000
863.706848	1929.000000
865.051758	1939.000000
866.396667	1931.000000
867.741455	1850.000000
869.086243	1777.000000
870.430969	1728.000000
871.775635	1691.000000
873.120239	1705.000000
874.464800	1727.000000
875.809265	1770.000000
877.153700	1762.000000
878.498100	1740.000000
879.842346	1659.000000
881.186600	1621.000000
882.530800	1592.000000
883.875000	1552.000000
885.219055	1507.000000
886.563049	1553.000000
887.907000	1489.000000
889.250854	1437.000000
890.594800	1425.000000
891.938500	2268.000000
893.282200	2004.000000
894.625900	1335.000000
895.969500	1286.000000
897.313000	1293.000000
898.656500	1253.000000
899.999939	1234.000000
901.343300	1218.000000
902.686646	1209.000000
904.029800	1172.000000
905.373000	1155.000000
906.716100	1101.000000
908.059143	1079.000000
909.402100	1083.000000
910.745056	1055.000000
912.087900	1007.000000
913.430664	994.000000
914.773438	977.000000
916.116000	949.000000
917.458740	940.000000
918.801200	907.000000
920.143700	885.000000
921.486145	893.000000
922.828500	853.000000
924.170800	839.000000
925.513000	819.000000
926.855164	774.000000
928.197266	779.000000
929.539300	738.000000
930.881200	720.000000
932.223100	724.000000
933.564941	705.000000
934.906738	685.000000
936.248400	669.000000
937.590100	654.000000
938.931641	626.000000
940.273132	649.000000
941.614600	618.000000
942.955933	605.000000
944.297241	601.000000
945.638500	618.000000
946.979600	595.000000
948.320740	595.000000
949.661865	582.000000
951.002747	607.000000
952.343700	588.000000
953.684600	574.000000
955.025269	575.000000
956.366000	586.000000
957.706600	576.000000
959.047200	590.000000
960.387634	575.000000
961.728100	590.000000
963.068400	593.000000
964.408700	593.000000
965.748962	600.000000
967.089050	611.000000
968.429138	600.000000
969.769100	589.000000
971.109100	572.000000
972.448900	596.000000
973.788700	594.000000
975.128400	615.000000
976.468100	604.000000
977.807700	608.000000
979.147200	613.000000
980.486633	618.000000
981.826000	610.000000
983.165300	598.000000
984.504456	606.000000
985.843600	611.000000
987.182739	620.000000
988.521700	624.000000
989.860657	611.000000
991.199463	611.000000
992.538300	639.000000
993.876953	623.000000
995.215700	617.000000
996.554200	618.000000
997.892639	606.000000
999.231100	611.000000
1000.569460	607.000000
1001.907780	614.000000
1003.246000	612.000000
1004.584110	602.000000
1005.922060	601.000000
1007.260070	613.000000
1008.597960	596.000000
1009.935790	584.000000
1011.273500	601.000000
1012.611210	576.000000
1013.948730	588.000000
1015.286320	565.000000
1016.623780	549.000000
1017.961060	569.000000
1019.298400	557.000000
1020.635620	552.000000
1021.972720	564.000000
1023.309810	558.000000
1024.646730	559.000000
1025.983760	572.000000
1027.320560	553.000000
1028.657230	536.000000
1029.993770	532.000000
1031.330570	533.000000
1032.667000	540.000000
1034.003540	531.000000
1035.339720	533.000000
1036.676150	511.000000
1038.012330	523.000000
1039.348270	526.000000
1040.684450	503.000000
1042.020510	506.000000
1043.356200	497.000000
1044.692000	507.000000
1046.027830	497.000000
1047.363530	512.000000
1048.699100	513.000000
1050.034420	504.000000
1051.370000	501.000000
1052.705200	491.000000
1054.040410	491.000000
1055.375610	513.000000
1056.710690	492.000000
1058.045650	520.000000
1059.380490	493.000000
1060.715450	517.000000
1062.050170	491.000000
1063.384770	502.000000
1064.719360	502.000000
1066.054000	500.000000
1067.388430	487.000000
1068.722660	481.000000
1070.056880	502.000000
1071.391110	472.000000
